Time (min),Force (N),Position (mm)
1.667E-05,0.19286,0.000
0.0009950,0.17857,0.000
0.001973,0.13571,0.000
0.002952,0.085714,0.000
0.003930,0.087229,0.000
0.004908,0.21061,4.850E-05
0.005886,0.23831,0.0004000
0.006865,0.39286,0.001100
0.007843,0.74286,0.002200
0.008821,1.0935,0.003800
0.009800,2.2494,0.005597
0.01078,3.2214,0.007200
0.01176,4.3357,0.008700
0.01273,5.2446,0.01011
0.01371,6.2840,0.01160
0.01469,7.2240,0.01290
0.01567,8.2736,0.01430
0.01665,9.2500,0.01560
0.01763,10.136,0.01690
0.01860,11.173,0.01812
0.01958,12.191,0.01940
0.02056,13.113,0.02066
0.02154,13.881,0.02190
0.02252,14.565,0.02320
0.02350,15.527,0.02450
0.02447,16.096,0.02580
0.02545,16.695,0.02711
0.02643,17.227,0.02840
0.02741,17.697,0.02980
0.02839,18.186,0.03110
0.02937,18.721,0.03240
0.03034,19.130,0.03370
0.03132,19.416,0.03493
0.03230,19.971,0.03630
0.03328,20.483,0.03757
0.03426,20.956,0.03880
0.03523,21.508,0.04020
0.03621,21.913,0.04140
0.03719,22.471,0.04260
0.03817,22.975,0.04392
0.03915,23.349,0.04520
0.04013,23.738,0.04650
0.04110,24.100,0.04770
0.04208,24.443,0.04900
0.04306,25.071,0.05020
0.04404,25.453,0.05150
0.04502,26.315,0.05280
0.04600,26.670,0.05408
0.04697,27.317,0.05535
0.04795,28.086,0.05660
0.04893,28.547,0.05790
0.04991,29.279,0.05915
0.05089,29.779,0.06040
0.05187,30.629,0.06160
0.05284,31.355,0.06296
0.05382,32.062,0.06423
0.05480,33.008,0.06560
0.05578,33.777,0.06680
0.05676,34.913,0.06810
0.05774,36.030,0.06931
0.05871,37.486,0.07060
0.05969,39.347,0.07185
0.06067,41.547,0.07310
0.06165,44.496,0.07440
0.06263,48.145,0.07570
0.06361,52.005,0.07693
0.06458,56.229,0.07820
0.06556,60.311,0.07947
0.06654,64.637,0.08070
0.06752,69.206,0.08200
0.06850,73.728,0.08330
0.06947,78.253,0.08460
0.07045,83.076,0.08590
0.07143,88.228,0.08720
0.07241,93.098,0.08846
0.07339,98.353,0.08970
0.07437,103.61,0.09100
0.07534,108.72,0.09220
0.07632,114.70,0.09350
0.07730,120.56,0.09470
0.07828,126.52,0.09600
0.07926,132.87,0.09730
0.08024,139.16,0.09860
0.08121,145.62,0.09980
0.08219,152.49,0.1012
0.08317,159.50,0.1024
0.08415,166.15,0.1037
0.08513,172.87,0.1050
0.08611,180.59,0.1062
0.08708,187.76,0.1075
0.08806,195.07,0.1088
0.08904,202.77,0.1100
0.09002,210.36,0.1113
0.09100,218.15,0.1126
0.09198,226.41,0.1138
0.09295,235.29,0.1151
0.09393,243.57,0.1164
0.09491,252.23,0.1177
0.09589,260.99,0.1190
0.09687,269.92,0.1202
0.09785,279.01,0.1215
0.09882,287.85,0.1227
0.09980,297.14,0.1240
0.1008,306.72,0.1252
0.1018,316.48,0.1265
0.1027,326.52,0.1278
0.1037,336.54,0.1291
0.1047,347.41,0.1304
0.1057,357.87,0.1316
0.1066,368.08,0.1329
0.1076,379.67,0.1342
0.1086,390.73,0.1355
0.1096,402.07,0.1367
0.1106,413.54,0.1380
0.1115,426.64,0.1393
0.1125,441.10,0.1406
0.1135,455.55,0.1418
0.1145,471.61,0.1430
0.1155,488.91,0.1443
0.1164,507.26,0.1455
0.1174,527.70,0.1468
0.1184,550.12,0.1480
0.1194,573.13,0.1493
0.1203,596.24,0.1507
0.1213,618.55,0.1520
0.1223,642.01,0.1533
0.1233,663.59,0.1545
0.1243,686.29,0.1558
0.1252,708.73,0.1571
0.1262,731.17,0.1583
0.1272,754.13,0.1596
0.1282,776.38,0.1609
0.1292,800.07,0.1621
0.1301,824.77,0.1634
0.1311,850.32,0.1647
0.1321,875.13,0.1660
0.1331,900.04,0.1673
0.1340,926.95,0.1685
0.1350,953.15,0.1698
0.1360,979.58,0.1711
0.1370,1008.3,0.1724
0.1380,1033.8,0.1736
0.1389,1061.8,0.1749
0.1399,1090.2,0.1761
0.1409,1118.8,0.1774
0.1419,1147.3,0.1786
0.1428,1176.0,0.1800
0.1438,1206.1,0.1812
0.1448,1236.5,0.1825
0.1458,1268.1,0.1839
0.1468,1300.6,0.1852
0.1477,1330.1,0.1864
0.1487,1360.5,0.1877
0.1497,1391.6,0.1890
0.1507,1422.7,0.1902
0.1517,1453.1,0.1914
0.1526,1483.9,0.1927
0.1536,1515.3,0.1939
0.1546,1548.0,0.1952
0.1556,1582.4,0.1965
0.1565,1615.9,0.1978
0.1575,1649.3,0.1991
0.1585,1683.3,0.2003
0.1595,1717.0,0.2016
0.1605,1751.6,0.2028
0.1614,1786.9,0.2041
0.1624,1822.5,0.2054
0.1634,1859.4,0.2067
0.1644,1895.8,0.2080
0.1653,1933.1,0.2092
0.1663,1969.0,0.2104
0.1673,2006.8,0.2118
0.1683,2044.1,0.2130
0.1693,2081.9,0.2143
0.1702,2119.8,0.2156
0.1712,2158.8,0.2168
0.1722,2200.1,0.2182
0.1732,2239.9,0.2195
0.1742,2278.0,0.2207
0.1751,2317.1,0.2220
0.1761,2355.4,0.2232
0.1771,2395.9,0.2245
0.1781,2436.3,0.2258
0.1790,2475.4,0.2270
0.1800,2516.5,0.2283
0.1810,2557.8,0.2296
0.1820,2600.0,0.2309
0.1830,2640.9,0.2322
0.1839,2684.0,0.2334
0.1849,2725.1,0.2347
0.1859,2765.4,0.2359
0.1869,2811.1,0.2373
0.1878,2854.3,0.2385
0.1888,2895.8,0.2398
0.1898,2939.0,0.2410
0.1908,2981.1,0.2423
0.1918,3025.1,0.2436
0.1927,3068.9,0.2448
0.1937,3112.9,0.2461
0.1947,3157.5,0.2474
0.1957,3200.8,0.2487
0.1967,3246.6,0.2499
0.1976,3291.7,0.2512
0.1986,3336.6,0.2525
0.1996,3381.3,0.2538
0.2006,3424.7,0.2550
0.2015,3470.2,0.2563
0.2025,3515.7,0.2576
0.2035,3561.1,0.2588
0.2045,3606.2,0.2601
0.2055,3651.9,0.2614
0.2064,3699.2,0.2627
0.2074,3743.3,0.2639
0.2084,3790.9,0.2652
0.2094,3837.1,0.2665
0.2103,3883.2,0.2678
0.2113,3927.9,0.2691
0.2123,3976.4,0.2704
0.2133,4023.9,0.2716
0.2143,4068.9,0.2728
0.2152,4115.4,0.2741
0.2162,4161.9,0.2754
0.2172,4207.8,0.2767
0.2182,4255.2,0.2779
0.2192,4302.3,0.2792
0.2201,4350.2,0.2804
0.2211,4397.4,0.2818
0.2221,4445.3,0.2831
0.2231,4495.3,0.2844
0.2240,4539.6,0.2856
0.2250,4588.2,0.2869
0.2260,4636.2,0.2881
0.2270,4683.8,0.2894
0.2280,4733.0,0.2907
0.2289,4779.0,0.2919
0.2299,4828.5,0.2932
0.2309,4878.2,0.2945
0.2319,4927.8,0.2958
0.2328,4974.2,0.2970
0.2338,5022.3,0.2984
0.2348,5072.9,0.2996
0.2358,5121.1,0.3008
0.2368,5169.7,0.3022
0.2377,5221.4,0.3034
0.2387,5266.9,0.3047
0.2397,5315.7,0.3059
0.2407,5365.7,0.3072
0.2417,5415.3,0.3085
0.2426,5462.5,0.3097
0.2436,5510.7,0.3110
0.2446,5560.0,0.3123
0.2456,5609.0,0.3135
0.2465,5660.2,0.3149
0.2475,5710.3,0.3161
0.2485,5758.1,0.3174
0.2495,5809.4,0.3187
0.2505,5859.4,0.3199
0.2514,5908.4,0.3212
0.2524,5956.1,0.3224
0.2534,6005.0,0.3237
0.2544,6054.2,0.3250
0.2553,6103.1,0.3262
0.2563,6156.6,0.3276
0.2573,6204.3,0.3288
0.2583,6256.7,0.3301
0.2593,6307.7,0.3314
0.2602,6356.4,0.3326
0.2612,6404.8,0.3338
0.2622,6453.8,0.3351
0.2632,6505.9,0.3364
0.2642,6556.4,0.3377
0.2651,6605.2,0.3390
0.2661,6655.2,0.3402
0.2671,6702.5,0.3414
0.2681,6754.8,0.3427
0.2690,6806.8,0.3440
0.2700,6858.3,0.3453
0.2710,6908.3,0.3466
0.2720,6959.4,0.3479
0.2730,7015.6,0.3492
0.2739,7064.9,0.3505
0.2749,7114.7,0.3518
0.2759,7165.1,0.3530
0.2769,7212.5,0.3543
0.2778,7265.3,0.3556
0.2788,7314.7,0.3568
0.2798,7365.9,0.3580
0.2808,7417.3,0.3593
0.2818,7469.1,0.3607
0.2827,7518.8,0.3619
0.2837,7570.6,0.3632
0.2847,7620.8,0.3645
0.2857,7668.6,0.3657
0.2867,7723.0,0.3670
0.2876,7775.6,0.3683
0.2886,7824.4,0.3695
0.2896,7872.5,0.3708
0.2906,7923.2,0.3720
0.2915,7976.6,0.3733
0.2925,8027.4,0.3745
0.2935,8080.3,0.3759
0.2945,8130.7,0.3771
0.2955,8179.5,0.3784
0.2964,8232.5,0.3797
0.2974,8284.8,0.3810
0.2984,8339.2,0.3823
0.2994,8385.2,0.3835
0.3003,8433.6,0.3848
0.3013,8485.0,0.3860
0.3023,8534.4,0.3872
0.3033,8586.0,0.3885
0.3043,8634.7,0.3897
0.3052,8686.1,0.3911
0.3062,8740.9,0.3924
0.3072,8790.9,0.3936
0.3082,8843.9,0.3949
0.3092,8899.1,0.3962
0.3101,8952.3,0.3974
0.3111,9003.0,0.3988
0.3121,9058.5,0.4001
0.3131,9112.1,0.4014
0.3140,9160.8,0.4026
0.3150,9212.5,0.4038
0.3160,9264.9,0.4051
0.3170,9314.7,0.4064
0.3180,9366.0,0.4077
0.3189,9417.0,0.4089
0.3199,9469.6,0.4102
0.3209,9521.4,0.4116
0.3219,9578.8,0.4129
0.3229,9630.1,0.4141
0.3238,9677.1,0.4153
0.3248,9730.1,0.4166
0.3258,9781.7,0.4179
0.3268,9835.6,0.4192
0.3277,9888.1,0.4203
0.3287,9936.4,0.4217
0.3297,9989.9,0.4229
0.3307,10047,0.4243
0.3317,10100,0.4255
0.3326,10149,0.4268
0.3336,10202,0.4281
0.3346,10255,0.4294
0.3356,10304,0.4306
0.3365,10358,0.4320
0.3375,10408,0.4331
0.3385,10458,0.4344
0.3395,10510,0.4357
0.3405,10563,0.4370
0.3414,10614,0.4382
0.3424,10662,0.4394
0.3434,10716,0.4407
0.3444,10768,0.4420
0.3454,10816,0.4433
0.3463,10872,0.4446
0.3473,10922,0.4458
0.3483,10975,0.4471
0.3493,11027,0.4484
0.3502,11079,0.4497
0.3512,11130,0.4509
0.3522,11178,0.4521
0.3532,11230,0.4534
0.3542,11283,0.4547
0.3551,11336,0.4561
0.3561,11390,0.4573
0.3571,11437,0.4586
0.3581,11492,0.4598
0.3590,11543,0.4611
0.3600,11594,0.4623
0.3610,11645,0.4636
0.3620,11695,0.4649
0.3630,11750,0.4662
0.3639,11801,0.4675
0.3649,11853,0.4687
0.3659,11902,0.4699
0.3669,11951,0.4712
0.3679,12002,0.4725
0.3688,12057,0.4738
0.3698,12107,0.4750
0.3708,12159,0.4763
0.3718,12213,0.4777
0.3727,12267,0.4790
0.3737,12316,0.4802
0.3747,12367,0.4814
0.3757,12415,0.4827
0.3767,12468,0.4840
0.3776,12520,0.4853
0.3786,12569,0.4865
0.3796,12621,0.4878
0.3806,12673,0.4891
0.3815,12727,0.4904
0.3825,12780,0.4917
0.3835,12834,0.4930
0.3845,12883,0.4942
0.3855,12931,0.4955
0.3864,12988,0.4968
0.3874,13040,0.4980
0.3884,13088,0.4993
0.3894,13138,0.5005
0.3904,13187,0.5018
0.3913,13240,0.5030
0.3923,13292,0.5043
0.3933,13344,0.5056
0.3943,13395,0.5068
0.3952,13447,0.5082
0.3962,13501,0.5095
0.3972,13553,0.5108
0.3982,13603,0.5120
0.3992,13651,0.5132
0.4001,13700,0.5145
0.4011,13753,0.5158
0.4021,13805,0.5171
0.4031,13855,0.5183
0.4040,13904,0.5195
0.4050,13959,0.5209
0.4060,14012,0.5222
0.4070,14061,0.5234
0.4080,14114,0.5247
0.4089,14162,0.5259
0.4099,14213,0.5272
0.4109,14264,0.5285
0.4119,14319,0.5298
0.4129,14370,0.5310
0.4138,14417,0.5322
0.4148,14469,0.5335
0.4158,14521,0.5348
0.4168,14573,0.5361
0.4177,14623,0.5374
0.4187,14673,0.5387
0.4197,14724,0.5399
0.4207,14781,0.5413
0.4217,14836,0.5427
0.4226,14887,0.5438
0.4236,14932,0.5451
0.4246,14986,0.5464
0.4256,15037,0.5476
0.4265,15088,0.5489
0.4275,15138,0.5501
0.4285,15188,0.5514
0.4295,15237,0.5527
0.4305,15293,0.5541
0.4314,15344,0.5553
0.4324,15392,0.5565
0.4334,15442,0.5579
0.4344,15495,0.5591
0.4354,15544,0.5604
0.4363,15599,0.5618
0.4373,15648,0.5629
0.4383,15697,0.5642
0.4393,15750,0.5655
0.4402,15800,0.5668
0.4412,15851,0.5680
0.4422,15897,0.5692
0.4432,15950,0.5705
0.4442,16001,0.5718
0.4451,16050,0.5731
0.4461,16107,0.5745
0.4471,16152,0.5756
0.4481,16205,0.5769
0.4490,16257,0.5782
0.4500,16308,0.5795
0.4510,16357,0.5807
0.4520,16402,0.5819
0.4530,16453,0.5832
0.4539,16507,0.5845
0.4549,16560,0.5859
0.4559,16614,0.5871
0.4569,16661,0.5884
0.4579,16717,0.5897
0.4588,16768,0.5909
0.4598,16818,0.5922
0.4608,16866,0.5934
0.4618,16918,0.5948
0.4627,16972,0.5961
0.4637,17023,0.5973
0.4647,17074,0.5986
0.4657,17122,0.5997
0.4667,17172,0.6011
0.4676,17224,0.6024
0.4686,17276,0.6037
0.4696,17326,0.6049
0.4706,17378,0.6061
0.4715,17432,0.6076
0.4725,17487,0.6089
0.4735,17536,0.6101
0.4745,17586,0.6113
0.4755,17633,0.6125
0.4764,17686,0.6138
0.4774,17740,0.6151
0.4784,17787,0.6163
0.4794,17837,0.6176
0.4804,17889,0.6188
0.4813,17943,0.6201
0.4823,17994,0.6215
0.4833,18048,0.6228
0.4843,18097,0.6240
0.4852,18143,0.6252
0.4862,18201,0.6266
0.4872,18254,0.6278
0.4882,18302,0.6290
0.4892,18352,0.6303
0.4901,18400,0.6315
0.4911,18453,0.6328
0.4921,18504,0.6340
0.4931,18557,0.6353
0.4940,18607,0.6365
0.4950,18656,0.6379
0.4960,18711,0.6391
0.4970,18763,0.6405
0.4980,18812,0.6417
0.4989,18860,0.6428
0.4999,18906,0.6441
0.5009,18959,0.6453
0.5019,19011,0.6466
0.5029,19063,0.6478
0.5038,19112,0.6491
0.5048,19165,0.6505
0.5058,19222,0.6518
0.5068,19273,0.6530
0.5077,19328,0.6545
0.5087,19379,0.6556
0.5097,19431,0.6569
0.5107,19483,0.6583
0.5117,19542,0.6597
0.5126,19592,0.6609
0.5136,19639,0.6621
0.5146,19692,0.6634
0.5156,19746,0.6647
0.5166,19796,0.6660
0.5175,19848,0.6672
0.5185,19897,0.6685
0.5195,19949,0.6697
0.5205,20005,0.6711
0.5214,20062,0.6725
0.5224,20114,0.6736
0.5234,20157,0.6748
0.5244,20212,0.6762
0.5254,20266,0.6774
0.5263,20317,0.6788
0.5273,20370,0.6799
0.5283,20419,0.6812
0.5293,20471,0.6825
0.5302,20528,0.6839
0.5312,20582,0.6851
0.5322,20630,0.6863
0.5332,20681,0.6876
0.5342,20734,0.6890
0.5351,20785,0.6902
0.5361,20840,0.6916
0.5371,20891,0.6927
0.5381,20940,0.6940
0.5391,20992,0.6953
0.5400,21045,0.6966
0.5410,21098,0.6978
0.5420,21145,0.6989
0.5430,21198,0.7003
0.5439,21249,0.7016
0.5449,21298,0.7028
0.5459,21358,0.7042
0.5469,21407,0.7053
0.5479,21458,0.7066
0.5488,21512,0.7080
0.5498,21566,0.7092
0.5508,21617,0.7105
0.5518,21663,0.7116
0.5527,21716,0.7129
0.5537,21769,0.7142
0.5547,21821,0.7156
0.5557,21879,0.7169
0.5567,21925,0.7181
0.5576,21982,0.7194
0.5586,22035,0.7207
0.5596,22085,0.7219
0.5606,22135,0.7232
0.5616,22186,0.7245
0.5625,22244,0.7258
0.5635,22297,0.7271
0.5645,22349,0.7283
0.5655,22398,0.7295
0.5664,22447,0.7309
0.5674,22500,0.7321
0.5684,22556,0.7334
0.5694,22608,0.7346
0.5704,22659,0.7358
0.5713,22713,0.7373
0.5723,22772,0.7386
0.5733,22822,0.7398
0.5743,22874,0.7411
0.5752,22922,0.7422
0.5762,22971,0.7436
0.5772,23027,0.7449
0.5782,23077,0.7461
0.5792,23129,0.7473
0.5801,23182,0.7485
0.5811,23236,0.7499
0.5821,23288,0.7513
0.5831,23345,0.7526
0.5841,23396,0.7538
0.5850,23443,0.7549
0.5860,23498,0.7564
0.5870,23556,0.7577
0.5880,23606,0.7589
0.5889,23656,0.7601
0.5899,23704,0.7613
0.5909,23760,0.7626
0.5919,23814,0.7639
0.5929,23864,0.7652
0.5938,23918,0.7665
0.5948,23966,0.7677
0.5958,24023,0.7691
0.5968,24078,0.7704
0.5977,24130,0.7716
0.5987,24180,0.7729
0.5997,24228,0.7740
0.6007,24282,0.7754
0.6017,24338,0.7767
0.6026,24389,0.7779
0.6036,24440,0.7791
0.6046,24491,0.7805
0.6056,24551,0.7818
0.6066,24603,0.7830
0.6075,24655,0.7844
0.6085,24708,0.7855
0.6095,24757,0.7868
0.6105,24810,0.7881
0.6114,24869,0.7895
0.6124,24925,0.7907
0.6134,24971,0.7919
0.6144,25021,0.7932
0.6154,25076,0.7945
0.6163,25128,0.7957
0.6173,25179,0.7970
0.6183,25231,0.7982
0.6193,25286,0.7995
0.6202,25340,0.8009
0.6212,25399,0.8023
0.6222,25455,0.8035
0.6232,25497,0.8046
0.6242,25553,0.8060
0.6251,25605,0.8072
0.6261,25658,0.8085
0.6271,25713,0.8098
0.6281,25758,0.8110
0.6291,25812,0.8122
0.6300,25870,0.8136
0.6310,25926,0.8149
0.6320,25975,0.8161
0.6330,26022,0.8174
0.6339,26080,0.8187
0.6349,26134,0.8199
0.6359,26187,0.8214
0.6369,26244,0.8225
0.6379,26289,0.8237
0.6388,26343,0.8250
0.6398,26399,0.8264
0.6408,26453,0.8276
0.6418,26502,0.8287
0.6427,26555,0.8301
0.6437,26609,0.8314
0.6447,26660,0.8326
0.6457,26721,0.8341
0.6467,26770,0.8352
0.6476,26821,0.8365
0.6486,26875,0.8378
0.6496,26930,0.8391
0.6506,26981,0.8403
0.6516,27027,0.8414
0.6525,27080,0.8426
0.6535,27136,0.8440
0.6545,27189,0.8454
0.6555,27247,0.8466
0.6564,27294,0.8479
0.6574,27352,0.8492
0.6584,27406,0.8504
0.6594,27457,0.8517
0.6604,27507,0.8529
0.6613,27557,0.8542
0.6623,27618,0.8556
0.6633,27671,0.8568
0.6643,27724,0.8581
0.6652,27775,0.8592
0.6662,27823,0.8606
0.6672,27878,0.8619
0.6682,27935,0.8631
0.6692,27987,0.8643
0.6701,28040,0.8656
0.6711,28094,0.8671
0.6721,28154,0.8684
0.6731,28205,0.8696
0.6741,28257,0.8708
0.6750,28305,0.8719
0.6760,28358,0.8733
0.6770,28415,0.8746
0.6780,28464,0.8758
0.6789,28516,0.8770
0.6799,28569,0.8783
0.6809,28627,0.8797
0.6819,28681,0.8811
0.6829,28738,0.8824
0.6838,28787,0.8835
0.6848,28833,0.8847
0.6858,28896,0.8862
0.6868,28952,0.8874
0.6877,29001,0.8886
0.6887,29051,0.8898
0.6897,29099,0.8911
0.6907,29158,0.8924
0.6917,29211,0.8936
0.6926,29265,0.8949
0.6936,29318,0.8961
0.6946,29369,0.8976
0.6956,29429,0.8989
0.6966,29485,0.9002
0.6975,29536,0.9013
0.6985,29586,0.9025
0.6995,29635,0.9039
0.7005,29691,0.9051
0.7014,29747,0.9065
0.7024,29798,0.9076
0.7034,29847,0.9088
0.7044,29904,0.9103
0.7054,29961,0.9116
0.7063,30013,0.9128
0.7073,30070,0.9141
0.7083,30116,0.9152
0.7093,30171,0.9165
0.7103,30224,0.9180
0.7112,30288,0.9194
0.7122,30339,0.9205
0.7132,30382,0.9216
0.7142,30440,0.9230
0.7151,30496,0.9243
0.7161,30548,0.9255
0.7171,30600,0.9268
0.7181,30651,0.9281
0.7191,30704,0.9293
0.7200,30765,0.9308
0.7210,30823,0.9321
0.7220,30873,0.9332
0.7230,30919,0.9344
0.7239,30977,0.9358
0.7249,31029,0.9370
0.7259,31084,0.9383
0.7269,31132,0.9394
0.7279,31184,0.9407
0.7288,31237,0.9421
0.7298,31298,0.9435
0.7308,31349,0.9446
0.7318,31397,0.9457
0.7328,31453,0.9472
0.7337,31509,0.9485
0.7347,31559,0.9497
0.7357,31622,0.9511
0.7367,31666,0.9522
0.7376,31717,0.9535
0.7386,31776,0.9548
0.7396,31830,0.9561
0.7406,31883,0.9573
0.7416,31929,0.9586
0.7425,31985,0.9598
0.7435,32040,0.9610
0.7445,32096,0.9626
0.7455,32155,0.9637
0.7464,32200,0.9650
0.7474,32256,0.9663
0.7484,32313,0.9676
0.7494,32366,0.9688
0.7504,32414,0.9699
0.7513,32463,0.9712
0.7523,32515,0.9725
0.7533,32571,0.9738
0.7543,32633,0.9752
0.7553,32681,0.9763
0.7562,32735,0.9777
0.7572,32792,0.9790
0.7582,32845,0.9803
0.7592,32896,0.9815
0.7601,32947,0.9827
0.7611,33007,0.9841
0.7621,33063,0.9854
0.7631,33115,0.9867
0.7641,33166,0.9879
0.7650,33212,0.9891
0.7660,33269,0.9904
0.7670,33326,0.9917
0.7680,33380,0.9930
0.7689,33431,0.9942
0.7699,33482,0.9956
0.7709,33548,0.9970
0.7719,33598,0.9981
0.7729,33650,0.9994
0.7738,33701,1.001
0.7748,33747,1.002
0.7758,33808,1.003
0.7768,33857,1.004
0.7778,33910,1.006
0.7787,33964,1.007
0.7797,34020,1.008
0.7807,34074,1.010
0.7817,34135,1.011
0.7826,34185,1.012
0.7836,34230,1.013
0.7846,34289,1.015
0.7856,34350,1.016
0.7866,34399,1.017
0.7875,34448,1.018
0.7885,34497,1.020
0.7895,34555,1.021
0.7905,34610,1.022
0.7914,34662,1.024
0.7924,34716,1.025
0.7934,34764,1.026
0.7944,34828,1.027
0.7954,34884,1.029
0.7963,34937,1.030
0.7973,34985,1.031
0.7983,35034,1.032
0.7993,35092,1.034
0.8003,35149,1.035
0.8012,35201,1.036
0.8022,35250,1.037
0.8032,35306,1.039
0.8042,35364,1.040
0.8051,35414,1.041
0.8061,35472,1.043
0.8071,35521,1.044
0.8081,35573,1.045
0.8091,35627,1.046
0.8100,35691,1.048
0.8110,35741,1.049
0.8120,35786,1.050
0.8130,35842,1.051
0.8139,35902,1.053
0.8149,35953,1.054
0.8159,36004,1.055
0.8169,36053,1.057
0.8179,36110,1.058
0.8188,36171,1.059
0.8198,36231,1.061
0.8208,36282,1.062
0.8218,36326,1.063
0.8228,36385,1.064
0.8237,36438,1.066
0.8247,36492,1.067
0.8257,36542,1.068
0.8267,36592,1.069
0.8276,36645,1.071
0.8286,36708,1.072
0.8296,36761,1.073
0.8306,36809,1.074
0.8316,36864,1.076
0.8325,36920,1.077
0.8335,36970,1.078
0.8345,37032,1.080
0.8355,37076,1.081
0.8364,37129,1.082
0.8374,37186,1.083
0.8384,37241,1.085
0.8394,37293,1.086
0.8404,37338,1.087
0.8413,37396,1.088
0.8423,37453,1.090
0.8433,37507,1.091
0.8443,37567,1.092
0.8453,37612,1.094
0.8462,37669,1.095
0.8472,37725,1.096
0.8482,37779,1.097
0.8492,37830,1.099
0.8501,37876,1.100
0.8511,37930,1.101
0.8521,37988,1.102
0.8531,38051,1.104
0.8541,38099,1.105
0.8550,38154,1.106
0.8560,38213,1.108
0.8570,38263,1.109
0.8580,38313,1.110
0.8589,38363,1.111
0.8599,38424,1.113
0.8609,38478,1.114
0.8619,38532,1.115
0.8629,38583,1.117
0.8638,38628,1.118
0.8648,38686,1.119
0.8658,38742,1.120
0.8668,38796,1.122
0.8678,38845,1.123
0.8687,38897,1.124
0.8697,38967,1.126
0.8707,39019,1.127
0.8717,39070,1.128
0.8726,39119,1.129
0.8736,39167,1.130
0.8746,39229,1.132
0.8756,39280,1.133
0.8766,39333,1.134
0.8775,39386,1.135
0.8785,39441,1.137
0.8795,39495,1.138
0.8805,39556,1.140
0.8814,39606,1.141
0.8824,39652,1.142
0.8834,39710,1.143
0.8844,39771,1.145
0.8854,39819,1.146
0.8863,39865,1.147
0.8873,39914,1.148
0.8883,39973,1.149
0.8893,40028,1.151
0.8903,40080,1.152
0.8912,40134,1.153
0.8922,40184,1.155
0.8932,40251,1.156
0.8942,40306,1.157
0.8951,40359,1.159
0.8961,40408,1.160
0.8971,40456,1.161
0.8981,40514,1.162
0.8991,40570,1.164
0.9000,40622,1.165
0.9010,40671,1.166
0.9020,40725,1.167
0.9030,40787,1.169
0.9040,40838,1.170
0.9049,40896,1.171
0.9059,40944,1.172
0.9069,40997,1.174
0.9079,41049,1.175
0.9088,41115,1.176
0.9098,41166,1.178
